"Time","Base base point T Monitor: Base base point T Monitor (K)","Base/fluid contact point T Monitor: Base/fluid contact point T Monitor (K)","Lid top point T Monitor: Lid top point T Monitor (K)","Lid/fluid contact point T Monitor: Lid/fluid contact point T Monitor (K)"
2.0E-5,773.182740386872,773.1500022343689,773.1500000000001,773.15
1.2800000000000002E-4,773.4160628177368,773.1502727164677,773.1500000000001,773.15
2.5600000000000004E-4,773.7134487097558,773.1523561711194,773.1500000000001,773.15
3.84E-4,774.1294982739763,773.1606446218939,773.1500000000001,773.15
5.120000000000001E-4,774.5389365300214,773.1762186906248,773.1500000000001,773.15
6.360000000000004E-4,774.9912597601668,773.2024611216509,773.1500000000001,773.15
7.640000000000007E-4,775.5684090127154,773.2496612722748,773.1500000000001,773.15
8.920000000000011E-4,776.1040198633514,773.3069737706169,773.1500000000001,773.15
0.0010200000000000014,776.6415521711914,773.3812433319355,773.1500000000001,773.15
0.0011480000000000017,777.0690673647283,773.4908396159032,773.1500000000001,773.15
0.001272000000000002,777.4010246928933,773.6038003291499,773.1500000000001,773.15
0.0014000000000000024,777.7092554848693,773.7322852129602,773.1500000000001,773.15
0.0015280000000000027,778.0459487774494,773.8987523222389,773.1500000000001,773.15
0.001656000000000003,778.319263943824,774.0531921521384,773.1500000000001,773.15
0.0017840000000000035,778.6237325367574,774.2437970097052,773.1500000000001,773.15
0.0019080000000000037,778.8759887438416,774.4156315556952,773.1500000000001,773.15
0.002036000000000004,779.1206706820266,774.5925629583757,773.1500000000001,773.15
0.0021640000000000045,779.398365658874,774.8039465792023,773.1500000000001,773.15
0.0022920000000000045,779.6320094365132,774.9899716438127,773.1500000000001,773.15
0.002420000000000005,779.8612966615984,775.1781665860642,773.1500000000001,773.15
0.0025440000000000055,780.1242554228535,775.3998237760134,773.1500000000001,773.15
0.0026720000000000055,780.3474159765194,775.5927590216803,773.1500000000001,773.15
0.002800000000000006,780.5678548467373,775.7863757671931,773.1500000000001,773.15
0.0029280000000000066,780.8225292290858,776.0134662168357,773.1500000000001,773.15
0.0030520000000000065,781.038988245476,776.208979621527,773.1500000000001,773.15
0.003180000000000007,781.2539709335551,776.4050083458088,773.1500000000001,773.15
0.0033080000000000075,781.5031522157971,776.6341590253875,773.1500000000001,773.15
0.0034360000000000076,781.7155126873473,776.8309269593561,773.1500000000001,773.15
0.003564000000000008,781.9616134221918,777.0599976155894,773.1500000000001,773.15
0.0036880000000000085,782.1722737921634,777.2575990994487,773.1500000000001,773.15
0.0038160000000000086,782.3817459527761,777.4546402061148,773.1500000000001,773.15
0.003944000000000008,782.6248063304555,777.6837794803002,773.1500000000001,773.15
0.004072000000000009,782.6931809894259,777.881277437948,773.1500000000001,773.15
0.004200000000000009,782.6338462274124,778.0771977862311,773.1500000000001,773.15
0.004324000000000009,782.489157944419,778.3008849675931,773.1500000000001,773.15
0.00445200000000001,782.3093312684583,778.4868039535551,773.1500000000001,773.15
0.00458000000000001,782.0835571825525,778.6625594379054,773.1500000000001,773.15
0.004708000000000011,781.767475018153,778.8520686914387,773.1500000000001,773.15
0.004836000000000011,781.4548577874259,778.9987629032095,773.1500000000001,773.15
0.004960000000000011,781.106251470247,779.1289091891474,773.1500000000001,773.15
0.009400000000000013,779.6701698443654,779.5060855221246,773.1499999991228,773.1499999986332
0.01580000000000002,779.3248805153044,779.2103717732188,773.1499999999313,773.14999999991
0.022200000000000022,779.0442565346004,778.9600039511397,773.1499999965537,773.1499999950264
0.02840000000000003,778.8522343640707,778.7820708007443,773.1499999993506,773.1499999991047
0.03480000000000003,778.6921709534712,778.6317962548733,773.1499999997528,773.1499999997469
0.041200000000000035,778.5329668598047,778.4815191191708,773.1499999971837,773.1499999960282
0.047600000000000045,778.4099000948528,778.3633783226891,773.1499999996371,773.149999999603
0.05400000000000005,778.2991246873717,778.2570109537531,773.149999999647,773.1499999996495
0.06020000000000005,778.1812460041868,778.1438817465396,773.1499999978257,773.1499999970133
0.06660000000000006,778.0848578098678,778.0501315925927,773.1499999995658,773.1499999995463
0.07300000000000006,777.9942240131485,777.9621888356456,773.1499999995966,773.1499999996129
0.07940000000000007,777.8932029788373,777.8640616756766,773.1499999993733,773.1499999992706
0.08580000000000007,777.8096990170436,777.7825779532012,773.1499999997936,773.149999999894
0.09200000000000008,777.7287275951264,777.7035311137404,773.1500000001621,773.1500000003905
0.09840000000000008,777.6370188202761,777.6139619032668,773.1500000009188,773.1500000013135
0.10480000000000009,777.5603653416081,777.5387979770693,773.1500000029383,773.150000003946
0.1112000000000001,777.4740300229346,777.454559401833,773.1500000058097,773.1500000072208
0.11760000000000011,777.4003251039779,777.3818023358116,773.1500000136126,773.1500000171322
0.1238000000000001,777.329012419421,777.3117082882238,773.1500000248031,773.1500000307309
0.13020000000000012,777.2485342621517,777.2329386459029,773.1500000455932,773.1500000550856
0.1366000000000001,777.1797989629488,777.1648867136033,773.1500000782779,773.1500000943547
0.14300000000000013,777.1133095477771,777.0993566680406,773.1500001261433,773.1500001505663
0.14940000000000014,777.0376639590387,777.0248551567436,773.1500002120458,773.1500002501201
0.15560000000000013,776.974315684844,776.9622723098568,773.1500003227947,773.1500003779719
0.16200000000000014,776.912454073449,776.9011763081631,773.1500004798617,773.1500005577483
0.16840000000000016,776.8421346909248,776.8317879159858,773.1500007419725,773.1500008546967
0.17480000000000015,776.7832918289791,776.7735387986339,773.1500010574748,773.1500012112638
0.18100000000000016,776.7258776643827,776.7167537441908,773.1500014805297,773.1500016857573
0.18740000000000018,776.6606550080882,776.6522952762898,773.1500021481052,773.1500024285381
0.19380000000000017,776.6061093128992,776.5982213304351,773.1500029109889,773.1500032760506
0.20020000000000018,776.5447531154277,776.5377639473845,773.1500040629728,773.150004537701
0.20660000000000017,776.4924683406917,776.4856644816855,773.1500053705265,773.1500059827845
0.21280000000000018,776.4420051587258,776.4356370315055,773.1500069915857,773.1500077566002
0.2192000000000002,776.3852119750816,776.3796138564937,773.150009352352,773.1500103105002
0.2256000000000002,776.3368218244236,776.3313430922334,773.1500119383022,773.1500131341083
0.2320000000000002,776.2901215089069,776.2849975553476,773.1500150496247,773.1500165009206
0.23840000000000022,776.2371030228426,776.2324452102788,773.1500194934691,773.1500212834853
0.2446000000000002,776.1927816281558,776.1883934033365,773.1500241241441,773.1500262662847
0.2510000000000002,776.149558576581,776.1454620389748,773.1500296161756,773.1500321544413
0.25740000000000024,776.1004806303064,776.09677638402,773.1500372651968,773.1500403157988
0.26380000000000026,776.0594429465832,776.0559473888342,773.1500450511393,773.150048628081
0.2702000000000002,776.0132800695951,776.0103096786713,773.1500556146964,773.1500597896091
0.27640000000000026,775.973957961748,775.9710446581518,773.1500664327224,773.1500713159459
0.2828000000000003,775.9359336774194,775.9331883704642,773.150078744643,773.150084369695
0.28920000000000023,775.893147119849,775.8908621277114,773.1500951411825,773.1501015852375
0.29560000000000025,775.8566609939711,775.8543642979191,773.1501116548104,773.1501190962267
0.3018000000000003,775.8214205991246,775.8193013266708,773.1501301257276,773.1501385415033
0.30820000000000025,775.7817212542361,775.7800075392718,773.1501543592793,773.1501638490369
0.31460000000000027,775.747854050286,775.7461110180668,773.1501784010924,773.150189208604
0.3210000000000003,775.715130742102,775.7135342847042,773.1502049377076,773.1502170077656
0.3274000000000003,775.6779269760879,775.6765478337041,773.1502396379831,773.1502532376734
0.3336000000000003,775.6467774854216,775.6454989340181,773.1502729183233,773.1502880270178
0.3400000000000003,775.6163537891468,775.6151975886946,773.1503096201328,773.1503263103422
0.3464000000000003,775.5817493504951,775.5807801566712,773.1503570489623,773.1503756299285
0.35280000000000034,775.5527615625705,775.5518668805107,773.1504020326322,773.1504224840468
0.3592000000000003,775.5200935833434,775.5194941167078,773.1504591149424,773.1504814446064
0.36540000000000034,775.4922123183752,775.4915881123827,773.1505139616644,773.1505386012954
0.37180000000000035,775.4652025079481,775.4646373192879,773.1505729597848,773.1505998447823
0.3782000000000003,775.4347500819532,775.4344490898807,773.1506471283857,773.1506762137177
0.38460000000000033,775.408728551942,775.4083645582982,773.1507178202176,773.1507497482864
0.39100000000000035,775.3835479748544,775.3832596180001,773.1507931218031,773.1508275964103
0.39720000000000033,775.3551237692602,775.35507373812,773.1508870891531,773.1509240813392
0.40360000000000035,775.3308243454062,775.3307073668692,773.1509759448759,773.1510162588322
0.41000000000000036,775.3073006041874,775.3072467888876,773.1510699273587,773.1511131677421
0.4164000000000004,775.2805004155318,775.2805570467983,773.1511875282442,773.1512341294
0.4228000000000004,775.2580132878297,775.2580993888996,773.1512956846495,773.1513456002721
0.4290000000000004,775.2360106775966,775.2361546774395,773.1514105811686,773.1514637731942
0.4354000000000004,775.210931183001,775.2111714487922,773.1515534283594,773.1516103825986
0.4418000000000004,775.1898788531252,775.1901408370036,773.1516839835899,773.1517446540945
0.4482000000000004,775.1661055049937,775.1665479432733,773.1518438875518,773.1519078853335
0.4544000000000004,775.1457738759758,775.1461685562114,773.1519923798727,773.1520608463898
0.46080000000000043,775.1260407228069,775.1264506568737,773.1521473163622,773.152219893101
0.4672000000000004,775.1037480094499,775.1043217152989,773.1523360649813,773.152412230137
0.4736000000000004,775.0846606374444,775.0851622798535,773.152510592698,773.1525919109787
0.4800000000000004,775.0661562680237,775.0666895027911,773.1526915250734,773.1527771258388
0.4862000000000004,775.0452275901446,775.0459106048992,773.152911068846,773.1530004812068
0.4926000000000004,775.0273009919895,775.027912148137,773.153113124428,773.1532081759126
0.49900000000000044,775.0099157092785,775.0105526503153,773.153321715648,773.1534213824984
0.5054000000000004,774.9900712621388,774.9907669209128,773.1535762290603,773.1536809873664
0.5118000000000005,774.973388997275,774.9740873421514,773.1538046897368,773.1539145387936
0.5180000000000005,774.9570380646353,774.9577611586375,773.1540421892188,773.154156903903
0.5244000000000004,774.9383662330746,774.9391407643891,773.1543308505784,773.154450957009
0.5308000000000005,774.9226639909109,774.9234378693606,773.1545889729981,773.1547144958352
0.5372000000000005,774.9049004846943,774.9057911641436,773.1548985514687,773.1550283624467
0.5436000000000005,774.889670049701,774.8904911907193,773.155180499231,773.1553171672018
0.5498000000000005,774.8748862625457,774.8757220270647,773.1554688337554,773.1556108773716
0.5562000000000005,774.8581430970969,774.8590859194925,773.1558137915749,773.1559602345964
0.5626000000000005,774.8437825545475,774.8446571368055,773.1561269374536,773.1562806482942
0.5690000000000005,774.8298386864094,774.8307239533452,773.1564462384448,773.1566055791197
0.5752000000000005,774.8140416600032,774.815025829871,773.1568270728355,773.1569908735293
0.5816000000000006,774.8004880464157,774.8014054219658,773.1571717610719,773.1573432129348
0.5880000000000005,774.7873236977072,774.788248918563,773.1575222816593,773.1576995737797
0.5944000000000005,774.7722728891026,774.7732296651309,773.1579433037417,773.158126815244
0.6008000000000006,774.7596000894114,774.760548042006,773.1583155230452,773.1585054172966
0.6070000000000005,774.7471608240135,774.7481171855842,773.1586972308764,773.158893052548
0.6134000000000005,774.732933680275,774.7339176294983,773.1591545701457,773.1593567579102
0.6198000000000006,774.7209507023281,774.721924428331,773.1595578889276,773.1597666543064
0.6262000000000005,774.7073741194014,774.7084266516918,773.1600351722444,773.1602484611841
0.6326000000000006,774.6957159253996,774.696705986562,773.1604642221062,773.1606860435236
0.6388000000000006,774.6843839608106,774.6853765476832,773.1608978542417,773.1611259164863
0.6452000000000006,774.6715312990895,774.6725966639756,773.1614103257436,773.1616428742411
0.6516000000000006,774.6604915094019,774.6614961006006,773.1618700113426,773.1621113632776
0.6580000000000006,774.6497577144705,774.6507627102866,773.1623337012862,773.1625814218548
0.6644000000000005,774.6374722649649,774.6384963333911,773.1628859496939,773.1631402731509
0.6706000000000006,774.6271172600141,774.6281309670845,773.1633701379983,773.1636313006372
0.6770000000000006,774.616941722808,774.6179544356995,773.163863078955,773.1641306895629
0.6834000000000006,774.6052920184992,774.6063212779881,773.1644490556657,773.1647233028768
0.6898000000000006,774.5954695761271,774.5964853738312,773.1649619095821,773.1652432080872
0.6962000000000006,774.5843293453348,774.5854043224033,773.1655643744989,773.1658499340584
0.7024000000000006,774.5747605590011,774.5757908111253,773.1661016037064,773.1663959209452
0.7088000000000007,774.5654365699346,774.5664528675431,773.1666420125587,773.1669434474636
0.7152000000000006,774.5548589110917,774.5559301291596,773.1672758011747,773.1675813735756
0.7216000000000007,774.5457641548994,774.5467808947014,773.1678405523189,773.1681556595894
0.7278000000000007,774.5369134354305,774.5379267313915,773.1684068111621,773.1687284304136
0.7342000000000006,774.5268623965628,774.5279267226405,773.1690704897765,773.1693961051437
0.7406000000000007,774.5182182529583,774.5192297737735,773.1696609909549,773.1699962702957
0.7470000000000007,774.5098040624758,774.5108109732765,773.1702522704455,773.1705940832817
0.7534000000000006,774.5001617586925,774.501178126442,773.1709510633816,773.1712994195432
0.7596000000000007,774.4920247172143,774.4930283053055,773.171559145955,773.1719145343308
0.7660000000000007,774.4840198454687,774.485018163382,773.1721740432819,773.1725359389811
0.7724000000000006,774.4748444029028,774.4758507294553,773.1728997882124,773.1732681515655
0.7788000000000007,774.467099022781,774.4680904986794,773.1735305572419,773.1739060854226
0.7852000000000007,774.4583043450994,774.4593379585385,773.1742665510435,773.1746456256665
0.7914000000000007,774.4507415262,774.4517357505902,773.1749185219184,773.1753067343478
0.7978000000000007,774.4433643702645,774.4443436861761,773.1755704265188,773.1759657697093
0.8042000000000007,774.4349858899424,774.4360045224756,773.1763301955361,773.176728897726
0.8106000000000008,774.4277739146808,774.4287456269785,773.1770030531534,773.1774116660287
0.8170000000000007,774.420748179975,774.421713333692,773.1776739594518,773.1780889244253
0.8232000000000007,774.4127609740171,774.4137631586775,773.1784557078436,773.1788738040334
0.8296000000000008,774.4058842376758,774.4068410097597,773.1791472964743,773.1795753142209
0.8360000000000007,774.3991837167789,774.4001335963378,773.1798362121026,773.1802704969424
0.8424000000000007,774.3914969774959,774.392450784546,773.1806459656242,773.1810863003067
0.8486000000000008,774.3850033135376,774.3859438771638,773.1813468600659,773.1817939854734
0.8550000000000008,774.378608906977,774.3795423081785,773.1820522107265,773.1825055057943
0.8614000000000007,774.3712717759876,774.3722082700936,773.182880493836,773.1833396955523
0.8678000000000008,774.3650717655669,774.3659935749214,773.1835968140759,773.1840628849795
0.8742000000000008,774.3580246182786,774.3589771619405,773.1844286084515,773.1848972945819
0.8804000000000007,774.3519583752256,774.3528766475795,773.1851619613439,773.1856396758457
0.8868000000000008,774.3460354984402,774.3469392333204,773.1858920912683,773.1863765734284
0.8932000000000008,774.3393019774992,774.3402345271958,773.1867392050126,773.1872260931543
0.8996000000000008,774.3335001661503,774.3343924925239,773.1874861022405,773.1879827800254
0.9060000000000008,774.3278429965299,774.3287276937947,773.1882278464974,773.1887303815353
0.9122000000000008,774.3214053732268,774.3223173601615,773.1890885070976,773.1895932026797
0.9186000000000009,774.3158573842703,774.3167304558327,773.1898467619955,773.19036117109
0.9250000000000008,774.3104467151775,774.3113120615802,773.1905992528838,773.1911193875228
0.9314000000000008,774.3042337296719,774.3050998263263,773.1914802404644,773.1920056822993
0.9378000000000009,774.2989797544609,774.2998318267107,773.192239902204,773.192771790728
0.9440000000000008,774.293802213303,774.2946477616204,773.1930016099856,773.1935389055471
0.9504000000000008,774.2878554107325,774.2887012342765,773.193892831961,773.1944352584104
0.9568000000000009,774.2828255687275,774.2836575915372,773.194660792423,773.1952095313147
0.9632000000000008,774.2771032145056,774.27795814731,773.1955494135968,773.1960997907901
0.9696000000000009,774.2721691321157,774.2729884515229,773.1963308425806,773.1968906603247
0.9758000000000009,774.2673549127022,774.2681666170927,773.1971050169672,773.1976701404711
0.9822000000000009,774.2618726299,774.2627059089741,773.1980010640237,773.1985676225592
0.9886000000000009,774.2571446727576,774.2579434927388,773.198788537591,773.1993644130523
0.9950000000000009,774.2525307563529,774.2533217587105,773.199568269125,773.2001493364068
1.0012000000000008,774.2472756693667,774.2480872104913,773.2004702070283,773.2010524726269
1.0076,774.2427428012586,774.243520997745,773.2012624032667,773.2018538521049
1.0139999999999993,774.2383185245062,774.2390889327146,773.2020463984719,773.2026428852553
1.0203999999999986,774.2332337705777,774.2340031396145,773.2029615885382,773.2035625329204
1.026799999999998,774.2289301491036,774.229686631343,773.203748482041,773.2043551972189
1.0329999999999973,774.2246857621981,774.2254355401302,773.2045354519944,773.2051468638476
1.0393999999999965,774.2198065871105,774.2205550653283,773.205453704086,773.2060693882225
1.0457999999999958,774.2156762361756,774.2164120903808,773.2062428262088,773.2068641252301
1.0521999999999951,774.2109732575651,774.2117265402952,773.2071535443145,773.2077755648106
1.0585999999999944,774.2069147209763,774.2076374611497,773.2079523362834,773.2085831397209
1.0647999999999938,774.2029517007145,774.2036669861222,773.2087418561948,773.2093772377631
1.071199999999993,774.1984350011643,774.1991667686791,773.2096534161717,773.2102893371701
1.0775999999999923,774.1945365516015,774.1952387529587,773.2104525765146,773.2110971187254
1.0839999999999916,774.190729227093,774.19142388176,773.2112421340366,773.2118911325304
1.090399999999991,774.1863507369845,774.1870435478866,773.2121621822488,773.2128149586745
1.0965999999999902,774.1826427561166,774.1833245547637,773.2129518165124,773.2136095948289
1.1029999999999895,774.1789832270049,774.1796575715643,773.2137404021006,773.214402477528
1.1093999999999888,774.1747740018907,774.1754463488826,773.2146589340252,773.2153246059264
1.1157999999999881,774.171208553946,774.1718692616247,773.2154470025042,773.2161176994456
1.1219999999999875,774.1676895927656,774.1683438081451,773.216233615012,773.2169082663169
1.1283999999999867,774.1636411326656,774.1642932190346,773.2171495567754,773.217827625276
1.134799999999986,774.1602112997783,774.1608520137246,773.2179350993517,773.218618031178
1.1411999999999853,774.1563029057843,774.1569571395338,773.218839901892,773.2195227522038
1.1475999999999846,774.152927444486,774.1535554162476,773.219631960155,773.2203227951335
1.153799999999984,774.1496290427972,774.1502499922562,773.2204134416872,773.2211081131478
