"Time","Base base point T Monitor: Base base point T Monitor (K)","Base/fluid contact point T Monitor: Base/fluid contact point T Monitor (K)","Lid top point T Monitor: Lid top point T Monitor (K)","Lid/fluid contact point T Monitor: Lid/fluid contact point T Monitor (K)"
2.0E-5,773.1827403857772,773.1500022330023,773.1500000000001,773.15
1.2800000000000002E-4,773.4160628176697,773.1502727007424,773.1500000000009,773.1500000093029
2.5600000000000004E-4,773.713448709602,773.1523560336244,773.1500000000501,773.1500000960125
3.84E-4,774.1294982612886,773.1606439448802,773.1500000008609,773.1500004547183
5.120000000000001E-4,774.5389365209826,773.1762169523952,773.1500000048632,773.1500013792836
6.360000000000004E-4,774.9912597291723,773.2024574442797,773.1500000186351,773.1500030192167
7.640000000000007E-4,775.5684088903465,773.2496537933436,773.1500000648805,773.1500060506431
8.920000000000011E-4,776.1040196396053,773.3069615012711,773.1500001567588,773.1500105775548
0.0010200000000000014,776.6415517187565,773.3812244196266,773.1500003323479,773.1500165565719
0.0011480000000000017,777.0690664445308,773.4908103137096,773.1500007054191,773.1500260138806
0.001272000000000002,777.4010231280754,773.6037596599971,773.1500012371806,773.1500364988967
0.0014000000000000024,777.7092529685851,773.7322308328149,773.1500020397677,773.1500492548594
0.0015280000000000027,778.0459446505942,773.8986789890589,773.1500034271207,773.1500670217662
0.001656000000000003,778.3192579073803,774.0531000862748,773.1500051036811,773.1500847268496
0.0017840000000000035,778.6237234960587,774.2436801270212,773.1500077511005,773.1501072872226
0.0019080000000000037,778.8759764376787,774.4154913697072,773.1500107295045,773.1501304614053
0.002036000000000004,779.1206543086669,774.5923972533791,773.1500144408731,773.1501548542867
0.0021640000000000045,779.3983434313245,774.8037484441353,773.150019801448,773.1501848070178
0.0022920000000000045,779.6319812214136,774.9897439408583,773.1500253902012,773.1502142460234
0.002420000000000005,779.8612614324194,775.1779073214939,773.1500319408606,773.1502445425814
0.0025440000000000055,780.1242106485868,775.3995253000938,773.1500408740263,773.1502810808198
0.0026720000000000055,780.3473618410932,775.5924253512586,773.1500497381387,773.1503160577067
0.002800000000000006,780.5677901690682,775.7860050828509,773.1500597216886,773.1503516674677
0.0029280000000000066,780.822450729207,776.0130503030989,773.1500728540855,773.1503951841646
0.0030520000000000065,781.0388965574252,776.2085232106924,773.1500854209972,773.1504341991542
0.003180000000000007,781.2538647888914,776.4045098873094,773.1500992259411,773.1504747028653
0.0033080000000000075,781.5030275711106,776.6336095868602,773.1501169268887,773.1505238031447
0.0034360000000000076,781.715370764525,776.8303321923673,773.1501334890776,773.1505675148107
0.003564000000000008,781.9614496621349,777.0593479826027,773.1501544192013,773.1506192354434
0.0036880000000000085,782.1720898517696,777.256901095946,773.150173846103,773.1506670484825
0.0038160000000000086,782.3815404805467,777.4538922424262,773.1501945629701,773.1507152541479
0.003944000000000008,782.6245740232362,777.6829713491913,773.150220373701,773.1507721436459
0.004072000000000009,782.6929241740837,777.8804163669454,773.1502440272171,773.1508243932518
0.004200000000000009,782.6335635373977,778.0762823257983,773.1502689826252,773.1508769057764
0.004324000000000009,782.4888433490074,778.2999044692932,773.1502997506873,773.1509386339908
0.00445200000000001,782.3089877763906,778.4857668055006,773.1503276793087,773.1509945628516
0.00458000000000001,782.0831834435863,778.6614649339294,773.1503569046431,773.1510501437884
0.004708000000000011,781.767064265615,778.8509068785047,773.1503926910273,773.1511154579603
0.004836000000000011,781.4544138549875,778.9975433962321,773.150424795056,773.1511715620852
0.004960000000000011,781.1057730521914,779.1276323492727,773.1504581866399,773.1512273904563
0.009400000000000013,779.6678330644123,779.5026906128884,773.1522406887883,773.153101549601
0.01580000000000002,779.3204993919362,779.2051813004489,773.1542613910565,773.15503704171
0.022200000000000022,779.0375797652073,778.9521980056313,773.1563688876281,773.1570692896836
0.02840000000000003,778.8438894150958,778.7729690683309,773.1580671705179,773.1587255063089
0.03480000000000003,778.682195199583,778.6211689372889,773.1596371400933,773.1602585617221
0.041200000000000035,778.5211370725165,778.4688252631261,773.161329896695,773.16190780766
0.047600000000000045,778.3966527160937,778.3495400236703,773.1627219074629,773.1632770651959
0.05400000000000005,778.2844815389662,778.2418111991075,773.1640192068883,773.1645498298632
0.06020000000000005,778.1650163320381,778.1269273718124,773.1654262659674,773.1659262991077
0.06660000000000006,778.067405851245,778.0321626297281,773.1665849900832,773.1670700115772
0.07300000000000006,777.975570730016,777.9430444092017,773.167663835748,773.168131264258
0.07940000000000007,777.8732149873376,777.8435661761141,773.1688425202663,773.1692899854526
0.08580000000000007,777.7886373700961,777.7610594138586,773.1697902571747,773.1702240567298
0.09200000000000008,777.7066413471887,777.6810033975983,773.1706804671246,773.1711007361174
0.09840000000000008,777.6137994254292,777.5902829664184,773.1716504021838,773.1720552271196
0.10480000000000009,777.5362385911825,777.5142566132508,773.1724282625282,773.172822452521
0.1112000000000001,777.4488741692119,777.428852861631,773.1732656610357,773.1736446024915
0.11760000000000011,777.3743888948017,777.355470611315,773.1739506713127,773.1743224143729
0.1238000000000001,777.3023142587374,777.2846297043034,773.1745846507885,773.1749472479023
0.13020000000000012,777.2209775882725,777.2048714270059,773.1752667491296,773.1756170254062
0.1366000000000001,777.1515956216324,777.1363180818723,773.1758239096015,773.1761681783308
0.14300000000000013,777.0844750527651,777.0701708925827,773.1763389707195,773.1766756985224
0.14940000000000014,777.0081369694001,776.9949573004096,773.1768977426229,773.1772255689903
0.15560000000000013,776.9442391969349,776.9318558585545,773.1773441076847,773.1776655263732
0.16200000000000014,776.8818586389486,776.8702532904092,773.1777612074841,773.1780762721501
0.16840000000000016,776.810971022121,776.8002774638337,773.1782132468676,773.178520811555
0.17480000000000015,776.7516787737247,776.7416115065313,773.1785740069843,773.1788761610097
0.18100000000000016,776.6938407093821,776.6844093890393,773.1789107460356,773.1792074115618
0.18740000000000018,776.6281549130457,776.6194692463063,773.1792753518702,773.179565632342
0.19380000000000017,776.5732442172574,776.5650602578507,773.1795660264663,773.1798516343629
0.20020000000000018,776.5114730742199,776.5040832479468,773.1798772992239,773.1801566515934
0.20660000000000017,776.4588869937364,776.4517945059499,773.180130501646,773.1804061051673
0.21280000000000018,776.4081275808567,776.4014793307699,773.1803637915887,773.1806351722437
0.2192000000000002,776.350999032194,776.3450230627915,773.1806136343283,773.1808797567612
0.2256000000000002,776.3023693697761,776.2966167400999,773.1808166755883,773.181079461939
0.2320000000000002,776.25543250359,776.2500429693999,773.1810036506199,773.1812628199478
0.23840000000000022,776.2021572831294,776.1972177429095,773.1812056750609,773.1814606711259
0.2446000000000002,776.1576363530617,776.152987236729,773.181366453569,773.1816182896215
0.2510000000000002,776.1142268314703,776.1098769560951,773.181516271694,773.1817650411621
0.25740000000000024,776.0649473424447,776.0609745539543,773.1816782847559,773.181923556618
0.26380000000000026,776.0237544299715,776.0200125569114,773.1818074178581,773.1820500571873
0.2702000000000002,775.9774120799376,775.9741145986931,773.1819459327253,773.1821854415122
0.27640000000000026,775.9379697123886,775.9347996954519,773.1820588065144,773.1822960291846
0.2828000000000003,775.8998273331201,775.8968458709979,773.1821635367372,773.1823986231287
0.28920000000000023,775.8569030920166,775.8543067287111,773.1822765425171,773.1825091741628
0.29560000000000025,775.820330513177,775.8178013659242,773.1823693721815,773.1826002229004
0.3018000000000003,775.7850017896526,775.782655520342,773.1824561028676,773.1826852734118
0.30820000000000025,775.7451999108757,775.7431891277782,773.1825508136127,773.1827781676241
0.31460000000000027,775.7112733293246,775.7093065890941,773.1826296308103,773.182855681862
0.3210000000000003,775.678487980123,775.6766732926125,773.1827043278533,773.182929213289
0.3274000000000003,775.641219897078,775.6396105140711,773.1827880812422,773.1830117532267
0.3336000000000003,775.6100251534245,775.6085308555591,773.1828577309129,773.1830806093764
0.3400000000000003,775.5795615457374,775.5781946589797,773.1829257880588,773.1831480147897
0.3464000000000003,775.5449172161202,775.5437260835373,773.183003839203,773.1832254506729
0.35280000000000034,775.5159037787017,775.5148027944173,773.183070304121,773.183291648044
0.3592000000000003,775.4832025560657,775.482338629027,773.1831470236722,773.1833681218108
0.36540000000000034,775.4553138648099,775.454475345379,773.1832147171068,773.1834358886634
0.37180000000000035,775.4282948586765,775.4275299305189,773.183282731176,773.1835041553867
0.3782000000000003,775.3978278808307,775.3972727970818,773.1833629973356,773.1835847099264
0.38460000000000033,775.371814180277,775.3712527228288,773.1834353801031,773.1836577746087
0.39100000000000035,775.346637203056,775.3461555313304,773.183509266274,773.183732383684
0.39720000000000033,775.3182142117796,775.3179196593878,773.1835979960489,773.1838219020432
0.40360000000000035,775.2939344826225,775.2936259259371,773.1836792056849,773.1839043734004
0.41000000000000036,775.2704260089067,775.270184487655,773.1837630508526,773.1839894412886
0.4164000000000004,775.2436468470142,775.2435069052189,773.1838657618008,773.1840936435847
0.4228000000000004,775.221182784704,775.2210844746267,773.1839586411683,773.1841881576697
0.4290000000000004,775.1992051967261,775.1991667201985,773.1840561162651,773.1842873209227
0.4354000000000004,775.1741575175735,775.1742069867013,773.1841760899448,773.1844093128456
0.4418000000000004,775.1531368478396,775.1532194369103,773.1842849306349,773.1845202840287
0.4482000000000004,775.1293956414162,775.1296159466342,773.1844175580122,773.1846548789293
0.4544000000000004,775.1091058939154,775.1093151820171,773.1845403134838,773.1847803362234
0.46080000000000043,775.0894115632502,775.0896468104185,773.1846681823606,773.1849108137657
0.4672000000000004,775.0671592475635,775.0675181309276,773.1848238475453,773.1850688113987
0.4736000000000004,775.0481205593093,775.0484491505777,773.1849678633636,773.1852162311992
0.4800000000000004,775.0296601885792,775.0300234375919,773.1851173185763,773.1853686014189
0.4862000000000004,775.0087788024169,775.0092538359783,773.1852989744284,773.1855529042776
0.4926000000000004,774.9909058190995,774.9913482739119,773.1854665972571,773.1857244883558
0.49900000000000044,774.9735694813281,774.9740406129783,773.1856400604788,773.1859012688739
0.5054000000000004,774.9537831740591,774.9543064123629,773.1858523486197,773.1861172522355
0.5118000000000005,774.9371534112881,774.9376884379868,773.1860435463773,773.1863122261591
0.5180000000000005,774.9208554617908,774.9214167074698,773.1862429323133,773.1865152538204
0.5244000000000004,774.9022462192261,774.9028526834155,773.1864861206849,773.1867625083795
0.5308000000000005,774.8865999618858,774.8872143629632,773.1867043891899,773.186984936539
0.5372000000000005,774.8688968431352,774.869595934661,773.1869670511614,773.1872509020637
0.5436000000000005,774.8537290998764,774.8543921413225,773.18720725678,773.1874964570483
0.5498000000000005,774.8390034898927,774.8396834381696,773.1874536789176,773.1877471126013
0.5562000000000005,774.8223240321728,774.8230807489795,773.1877494781212,773.1880463775882
0.5626000000000005,774.8080283525309,774.8087484476425,773.1880190908669,773.1883218071962
0.5690000000000005,774.7941449008359,774.7948780535546,773.1882948265853,773.1886020755132
0.5752000000000005,774.7784142497625,774.7792175066564,773.188624731801,773.188935553177
0.5816000000000006,774.7649271605184,774.765693506265,773.1889244877755,773.1892415628677
0.5880000000000005,774.7518249787,774.7526014280213,773.1892301580584,773.1895520191031
0.5944000000000005,774.7368467443338,774.7376497630052,773.1895984532168,773.1899254092858
0.6008000000000006,774.7242375959066,774.7250388032785,773.1899251038295,773.1902573584947
0.6070000000000005,774.7118618063437,774.7126726077986,773.1902609903842,773.1905981689121
0.6134000000000005,774.6977086521945,774.6985423404285,773.1906645792004,773.1910070416951
0.6198000000000006,774.6857903633435,774.6866204825035,773.1910215467893,773.1913695409298
0.6262000000000005,774.6722846828445,774.6731690028014,773.1914449763865,773.191796693561
0.6326000000000006,774.660695491892,774.6615431449524,773.1918268557839,773.1921858378498
0.6388000000000006,774.6494284511966,774.6502804570046,773.1922136130602,773.1925778813837
0.6452000000000006,774.6366476236421,774.6375491081183,773.1926716719468,773.193039650992
0.6516000000000006,774.6256771850747,774.6265423681724,773.1930837933754,773.193459352223
0.6580000000000006,774.6150087593469,774.6158762538596,773.193500267804,773.1938812695186
0.6644000000000005,774.6027992456932,774.6036817897897,773.1939973579628,773.1943839751999
0.6706000000000006,774.592510215413,774.5933874142543,773.1944341823573,773.1948266924486
0.6770000000000006,774.5824002619943,774.583278293796,773.1948797403188,773.1952778012043
0.6834000000000006,774.5708266788586,774.5717174578999,773.195410422377,773.1958141622245
0.6898000000000006,774.561070272056,774.5619531240465,773.1958758510008,773.1962857141854
0.6962000000000006,774.5500029089976,774.5509247406679,773.1964234161414,773.1968368166195
0.7024000000000006,774.5405029180007,774.5413976329557,773.196912872308,773.1973339634889
0.7088000000000007,774.5312448328189,774.5321308698711,773.197405925492,773.1978332335024
0.7152000000000006,774.5207399997643,774.5216617788604,773.1979849256052,773.1984156621957
0.7216000000000007,774.5117140619374,774.5126016406658,773.1985020512647,773.1989412432227
0.7278000000000007,774.5029285816212,774.5038142255039,773.1990211449032,773.1994660206077
0.7342000000000006,774.4929501466393,774.4938685995248,773.1996302685192,773.2000784444912
0.7406000000000007,774.484374317169,774.4852592695021,773.2001734033721,773.2006301987487
0.7470000000000007,774.4760249598783,774.4769068794681,773.2007177913478,773.2011803121138
0.7534000000000006,774.4664577491536,774.4673460372261,773.2013620091293,773.2018302063865
0.7596000000000007,774.4583855512832,774.4592650931653,773.2019234255182,773.202397828167
0.7660000000000007,774.4504450029846,774.4513207939486,773.2024917841279,773.202971906686
0.7724000000000006,774.4413440349437,774.4422249121607,773.2031633908412,773.2036491349587
0.7788000000000007,774.4336629161916,774.4345334008318,773.2037478977213,773.2042399926581
0.7852000000000007,774.4249395543017,774.425836243964,773.2044304306262,773.2049254046
0.7914000000000007,774.4174428841018,774.4183142169688,773.2050361131132,773.2055393064023
0.7978000000000007,774.410129316717,774.4109900077482,773.2056422166345,773.2061517473702
0.8042000000000007,774.4018214738662,774.4027063085285,773.206349065425,773.2068612965562
0.8106000000000008,774.3946751434573,774.395529264124,773.2069761419067,773.2074973550242
0.8170000000000007,774.3877119440612,774.388560886062,773.2076017576429,773.2081285855637
0.8232000000000007,774.3797946216265,774.3806660322444,773.2083311802911,773.2088604905243
0.8296000000000008,774.3729826514542,774.3738241289319,773.2089775400019,773.2095158714405
0.8360000000000007,774.3663438823199,774.3671798005606,773.2096217147197,773.2101655929498
0.8424000000000007,774.3587285709389,774.3595660245016,773.2103794871359,773.2109286357319
0.8486000000000008,774.3522963784923,774.353123890667,773.2110360363903,773.2115912406305
0.8550000000000008,774.3459628936229,774.3467845325298,773.2116972297437,773.2122578995783
0.8614000000000007,774.3386962178378,774.3395186818938,773.2124742220949,773.2130400351296
0.8678000000000008,774.3325568176585,774.3333682490174,773.2131468055694,773.2137187628421
0.8742000000000008,774.3255772057169,774.3264066318438,773.2139280744137,773.2145020159633
0.8804000000000007,774.3195729153485,774.3203794246477,773.2146178332525,773.2152000045434
0.8868000000000008,774.3137097485123,774.3145052268836,773.2153048554295,773.2158930862167
0.8932000000000008,774.307042807526,774.3078549351369,773.216102169513,773.2166921820626
0.8996000000000008,774.3013022120523,774.3020872598695,773.2168061346644,773.2174051312529
0.9060000000000008,774.2957035708276,774.2964821710713,773.2175054114015,773.2181096015984
0.9122000000000008,774.2893315450882,774.2901257269983,773.2183170189119,773.2189227532937
0.9186000000000009,774.2838437561746,774.2846116131763,773.2190330126009,773.2196476782361
0.9250000000000008,774.2784906819062,774.2792519587424,773.2197436980748,773.2203634396719
0.9314000000000008,774.2723442737807,774.2731044317754,773.2205761581149,773.2212004972864
0.9378000000000009,774.2671474859501,774.2678967730142,773.2212944850138,773.2219246048292
0.9440000000000008,774.2620265855918,774.2627700491279,773.222015056982,773.2226499537543
0.9504000000000008,774.2561452594452,774.2568872230017,773.2228585398931,773.223497871423
0.9568000000000009,774.251171640727,774.2519028379928,773.2235858471814,773.2242308398376
0.9632000000000008,774.2455121243003,774.2462559176219,773.2244274953317,773.2250735259255
0.9696000000000009,774.2406354707234,774.2413549004259,773.2251685169563,773.2258232641439
0.9758000000000009,774.2358762862009,774.2365890840675,773.2259027129996,773.2265621530253
0.9822000000000009,774.2304557906364,774.2311802889826,773.2267525793536,773.2274128604699
0.9886000000000009,774.2257842245111,774.226485062284,773.2275003480199,773.2281692423255
0.9950000000000009,774.2212243736849,774.2219184179777,773.2282407943036,773.2289142789738
1.0012000000000008,774.2160300208488,774.2167350769034,773.2290973483675,773.2297714449112
1.0076,774.211552507842,774.2122345900943,773.2298505451197,773.2305331406361
1.0139999999999993,774.2071813306791,774.2078566192489,773.2305959502346,773.2312829944578
1.0203999999999986,774.202157940266,774.2028307162562,773.2314663671958,773.2321572196007
1.026799999999998,774.1979069585972,774.1985694932454,773.232215162903,773.2329111853355
1.0329999999999973,774.1937147018509,774.1943711613285,773.2329642341278,773.2336643806071
1.0393999999999965,774.1888957741564,774.1895495318112,773.2338385244512,773.2345423058058
1.0457999999999958,774.1848170943583,774.1854607797344,773.2345902459753,773.2352990542823
1.0521999999999951,774.180172003179,774.1808246700251,773.2354577328564,773.2361666928165
1.0585999999999944,774.1761660689357,774.1767975214563,773.2362194206103,773.2369365280715
1.0647999999999938,774.1722535742075,774.1728784336713,773.2369722174736,773.2376933460222
1.071199999999993,774.1677937083498,774.1684269438351,773.2378413470967,773.2385624519811
1.0775999999999923,774.1639468512891,774.1645594959716,773.2386041061385,773.2393332137987
1.0839999999999916,774.1601891003339,774.1607950939716,773.2393576344003,773.2400906515988
1.090399999999991,774.1558678935213,774.1564708134682,773.2402358914211,773.2409720802334
1.0965999999999902,774.152209012155,774.1528029499688,773.2409899822517,773.2417306217982
1.1029999999999895,774.1485981164205,774.1491854713182,773.2417432283103,773.2424876291509
1.1093999999999888,774.1444450874902,774.145029272549,773.2426207714938,773.243368173688
1.1157999999999881,774.1409278042388,774.1415025930065,773.24337398945,773.2441258732925
1.1219999999999875,774.1374565413759,774.1380254050072,773.2441259428311,773.244881259653
