"Time","Base base point T Monitor: Base base point T Monitor (K)","Base/fluid contact point T Monitor: Base/fluid contact point T Monitor (K)","Lid top point T Monitor: Lid top point T Monitor (K)","Lid/fluid contact point T Monitor: Lid/fluid contact point T Monitor (K)"
2.0E-5,973.1827403868721,973.1500022353697,973.15,973.15
1.2800000000000002E-4,973.4160628177863,973.1502729167629,973.15,973.15
2.5600000000000004E-4,973.7134487118299,973.1523587107349,973.15,973.15
3.84E-4,974.1294983078755,973.1606593910271,973.15,973.15
5.120000000000001E-4,974.5389367169145,973.1762614207871,973.15,973.15
6.360000000000004E-4,974.9912604608998,973.202555975636,973.15,973.15
7.640000000000007E-4,975.5684113902333,973.2498567494707,973.15,973.15
8.920000000000011E-4,976.1040254762845,973.3073007648948,973.15,973.15
0.0010200000000000014,976.6415637939939,973.3817460795827,973.15,973.15
0.0011480000000000017,977.0690913543278,973.4916103561276,973.15,973.15
0.001272000000000002,977.4010657626152,973.6048570977995,973.15,973.15
0.0014000000000000024,977.709321578909,973.7336766288633,973.15,973.15
0.0015280000000000027,978.0460567324068,973.9005882676767,973.15,973.15
0.001656000000000003,978.3194208573195,974.0554492627391,973.15,973.15
0.0017840000000000035,978.6239641916204,974.2465789224356,973.15,973.15
0.0019080000000000037,978.876301664464,974.4188963857009,973.15,973.15
0.002036000000000004,979.1210816842806,974.596327303563,973.15,973.15
0.0021640000000000045,979.3989134653638,974.808309956564,973.15,973.15
0.0022920000000000045,979.6326949891911,974.9948697312316,973.15,973.15
0.002420000000000005,979.862138588987,975.1836067414881,973.15,973.15
0.0025440000000000055,980.1253034027579,975.4059045768644,973.15,973.15
0.0026720000000000055,980.3486616172457,975.5994041003854,973.15,973.15
0.002800000000000006,980.5693163995675,975.7935886755173,973.15,973.15
0.0029280000000000066,980.8242656861061,976.0213492439151,973.15,973.15
0.0030520000000000065,981.0409795627622,976.2174436580079,973.15,973.15
0.003180000000000007,981.2562343228675,976.4140585098581,973.15,973.15
0.0033080000000000075,981.5057540657454,976.6438991285623,973.15,973.15
0.0034360000000000076,981.7184220699319,976.8412640622574,973.15,973.15
0.003564000000000008,981.9649005238866,977.0710339252903,973.15,973.15
0.0036880000000000085,982.175901868108,977.2692450250846,973.15,973.15
0.0038160000000000086,982.3857287245385,977.4668976614939,973.15,973.15
0.003944000000000008,982.6292196129903,977.6967530327328,973.15,973.15
0.004072000000000009,982.6979788611549,977.8948748582354,973.15,973.15
0.004200000000000009,982.6390407277079,978.0914200143347,973.15,973.15
0.004324000000000009,982.4948298830661,978.3158335051654,973.15,973.15
0.00445200000000001,982.3154265231475,978.5023723206461,973.15,973.15
0.00458000000000001,982.090086139674,978.678729887843,973.15,973.15
0.004708000000000011,981.7745230556196,978.868912013584,973.15,973.15
0.004836000000000011,981.462360903156,979.0161498969248,973.15,973.15
0.004960000000000011,981.1142177143831,979.1468030366372,973.15,973.15
0.009400000000000013,979.6924630495594,979.5322459493982,973.1499999989397,973.1499999983281
0.01580000000000002,979.3546768832969,979.2424764302822,973.1499999999403,973.1499999999219
0.022200000000000022,979.0794939529303,978.996796502482,973.1499999964316,973.1499999948118
0.02840000000000003,978.8908878898101,978.8219226413142,973.1499999993492,973.1499999990847
0.03480000000000003,978.733475364301,978.6740628070331,973.1499999997658,973.149999999759
0.041200000000000035,978.5767160549851,978.5260398377685,973.1499999974706,973.1499999964212
0.047600000000000045,978.4553865189515,978.4095154722967,973.1499999996297,973.1499999995964
0.05400000000000005,978.3460372412751,978.3044798926742,973.1499999996273,973.1499999996306
0.06020000000000005,978.2295026300789,978.1926105769256,973.1499999978,973.1499999969724
0.06660000000000006,978.1340585258142,978.0997430517237,973.1499999995231,973.149999999507
0.07300000000000006,978.0441703511937,978.01249575668,973.14999999956,973.1499999995918
0.07940000000000007,977.9438083976348,977.9149811269631,973.1499999994114,973.1499999993587
0.08580000000000007,977.8607089263727,977.8338653943547,973.1499999999543,973.150000000153
0.09200000000000008,977.780009576041,977.7550604870656,973.15000000066,973.1500000010974
0.09840000000000008,977.6884702202499,977.6656327599427,973.150000002309,973.1500000031645
0.10480000000000009,977.6118498689741,977.5904776619132,973.1500000058672,973.1500000077432
0.1112000000000001,977.5254406014678,977.5061489648588,973.1500000120817,973.1500000150867
0.11760000000000011,977.4515846642523,977.4332179692097,973.1500000253621,973.1500000317412
0.1238000000000001,977.3800537161693,977.3628900997962,973.1500000454165,973.1500000560083
0.13020000000000012,977.2992497404247,977.2837863656156,973.1500000831791,973.1500001003233
0.1366000000000001,977.2301734748469,977.215374938351,973.1500001395273,973.1500001675759
0.14300000000000013,977.1633030660654,977.1494526714694,973.1500002224602,973.1500002646081
0.14940000000000014,977.0871668991113,977.0744521344186,973.1500003698295,973.1500004348277
0.15560000000000013,977.023363602199,977.0114038569059,973.1500005576147,973.1500006508383
0.16200000000000014,976.9610213960129,976.9498189613995,973.1500008216111,973.1500009519773
0.16840000000000016,976.890114922651,976.8798380150622,973.1500012580253,973.1500014447965
0.17480000000000015,976.8307489994335,976.8210571681556,973.150001778244,973.1500020308067
0.18100000000000016,976.7727984623043,976.7637299706162,973.1500024701576,973.1500028044038
0.18740000000000018,976.7069370443264,976.6986292950703,973.1500035525255,973.1500040050084
0.19380000000000017,976.6518340740587,976.6439910432172,973.150004778892,973.150005363351
0.20020000000000018,976.5898278585491,976.5828862682314,973.1500066162756,973.1500073698635
0.20660000000000017,976.5369702567629,976.5302031215589,973.1500086843893,973.1500096490154
0.21280000000000018,976.4859389395759,976.4796035756351,973.1500112306745,973.1500124275142
0.2192000000000002,976.4284894029252,976.4229275959765,973.1500149117021,973.150016398916
0.2256000000000002,976.379526102502,976.3740740131784,973.1500189138717,973.1500207575217
0.2320000000000002,976.3322614905427,976.3271609836411,973.1500236981535,973.1500259213759
0.23840000000000022,976.2785897627292,976.2739548269094,973.1500304844562,973.1500332064685
0.2446000000000002,976.2337122391679,976.2293429966888,973.1500375089823,973.1500407468169
0.2510000000000002,976.1899386647838,976.1858585712183,973.1500457901363,973.1500496041455
0.25740000000000024,976.1402264155452,976.1365385821575,973.150057250285,973.1500618031845
0.26380000000000026,976.0986509303331,976.0951680925282,973.1500688436448,973.1500741525552
0.2702000000000002,976.0518758934833,976.0489227299233,973.1500844784936,973.1500906353727
0.27640000000000026,976.0120262626941,976.0091243810547,973.1501003954988,973.1501075587577
0.2828000000000003,975.9734869552506,975.970749876672,973.1501184140348,973.1501266233173
0.28920000000000023,975.9301156801563,975.927843458734,973.1501422759744,973.1501516247735
0.29560000000000025,975.8931264110853,975.8908358249676,973.1501661762658,973.1501769194814
0.3018000000000003,975.8573966049775,975.8552820659831,973.1501927761458,973.1502048679963
0.30820000000000025,975.8171421415473,975.8154376417955,973.1502274918793,973.150241051618
0.31460000000000027,975.7827980552369,975.7810581440577,973.1502617558564,973.1502771287567
0.3210000000000003,975.7496115028283,975.7480169457698,973.1502993986503,973.1503164911552
0.3274000000000003,975.7118783100544,975.7105018744353,973.1503483781853,973.150367537787
0.3336000000000003,975.6802832342593,975.679005416848,973.1503951272724,973.1504163230279
0.3400000000000003,975.6494225628799,975.6482660571197,973.1504464569505,973.1504697743029
0.3464000000000003,975.6143191722858,975.6133505365804,973.1505124801909,973.1505383142854
0.35280000000000034,975.584911745212,975.5840155564667,973.1505748156673,973.1506031386618
0.3592000000000003,975.5517694681805,975.5511725606129,973.1506535643517,973.1506843459928
0.36540000000000034,975.523482062251,975.5228566328379,973.1507288992427,973.1507627364683
0.37180000000000035,975.4960778001856,975.4955095116587,973.1508096132588,973.1508463981496
0.3782000000000003,975.4651797486697,975.4648795254577,973.1509106545965,973.150950277936
0.38460000000000033,975.4387764543626,975.4384086837618,973.1510065629876,973.1510499058312
0.39100000000000035,975.4132258611886,975.4129329963936,973.1511083396379,973.1511549762679
0.39720000000000033,975.3843833948149,975.3843325821646,973.1512348389573,973.1512846776674
0.40360000000000035,975.359725732936,975.3596037447412,973.1513539905923,973.151408124664
0.41000000000000036,975.3358548419598,975.3357953595964,973.1514795656391,973.151537438821
0.4164000000000004,975.3086588049938,975.3087106135283,973.1516361024655,973.1516982354167
0.4228000000000004,975.2858391413574,975.2859189198728,973.151779534254,973.1518458785448
0.4290000000000004,975.2635109916768,975.2636483067166,973.1519313893347,973.1520018687227
0.4354000000000004,975.238060280296,975.2382946728185,973.1521195056163,973.1521946978481
0.4418000000000004,975.216696121908,975.2169508405461,973.1522908285833,973.1523706909999
0.4482000000000004,975.1925706763516,975.1930089873022,973.152499935907,973.1525838859542
0.4544000000000004,975.1719377974944,975.1723256609513,973.1526934595395,973.1527830133647
0.46080000000000043,975.151912243346,975.1523140645131,973.1528947501988,973.1529894155457
0.4672000000000004,975.129289362668,975.1298579109598,973.1531391571783,973.1532381775482
0.4736000000000004,975.1099192525579,975.1104124462233,973.153364417265,973.1534698518038
0.4800000000000004,975.091140915701,975.0916652227853,973.1535972460437,973.1537079374298
0.4862000000000004,975.0699026039613,975.0705795183934,973.1538788694369,973.1539941308868
0.4926000000000004,975.0517108343182,975.0523128056407,973.1541372577816,973.1542594744581
0.49900000000000044,975.0340685917641,975.0346959030973,973.1544032425547,973.1545310698358
0.5054000000000004,975.0139311260406,975.01461783,973.154726802655,973.1548607636379
0.5118000000000005,974.9970026842933,974.9976909923166,973.1550163809451,973.1551565120612
0.5180000000000005,974.980410722419,974.9811235407694,973.1553165998497,973.155462585169
0.5244000000000004,974.9614639924645,974.9622288875039,973.155680435272,973.1558328538138
0.5308000000000005,974.9455307811243,974.9462940088702,973.156004855283,973.1561637810184
0.5372000000000005,974.9275064158743,974.9283888129644,973.1563928560249,973.1565567701117
0.5436000000000005,974.9120525447481,974.912862800545,973.15674525578,973.1569174391284
0.5498000000000005,974.8970522076418,974.8978767536239,973.1571047226399,973.1572832830925
0.5562000000000005,974.880064236189,974.8809980717242,973.1575336266102,973.1577172486998
0.5626000000000005,974.8654939946006,974.866357143659,973.1579219514027,973.1581142708962
0.5690000000000005,974.8513468767618,974.8522203652261,973.1583169438129,973.1585158879109
0.5752000000000005,974.8353200743392,974.8362946034935,973.1587868414388,973.1589908587379
0.5816000000000006,974.8215696241497,974.8224750584994,973.1592110641991,973.1594241702622
0.5880000000000005,974.8082144842791,974.8091274408674,973.1596414549025,973.1598613778875
0.5944000000000005,974.7929460533262,974.7938910893976,973.1601571266517,973.160384231438
0.6008000000000006,974.7800903717024,974.7810257789669,973.1606119121891,973.1608464616318
0.6070000000000005,974.7674720083514,974.7684156553235,973.1610772484537,973.1613186536682
0.6134000000000005,974.7530405535654,974.7540122856798,973.1616334538198,973.1618821497631
0.6198000000000006,974.7408858753296,974.7418466268375,973.162122809567,973.1623791212577
0.6262000000000005,974.7271153359254,974.7281566940334,973.1627005613861,973.1629618728232
0.6326000000000006,974.7152909785901,974.7162679109039,973.1632187436678,973.163490005655
0.6388000000000006,974.703797948146,974.7047771630347,973.1637413535569,973.1640197506641
0.6452000000000006,974.6907631800029,974.6918168732014,973.1643575981549,973.1646408994498
0.6516000000000006,974.6795673774931,974.6805584561951,973.1649091553006,973.1652026576783
0.6580000000000006,974.6686823543246,974.6696735843108,973.1654643836463,973.1657651176171
0.6644000000000005,974.6562244030755,974.6572351393626,973.1661242221122,973.1664323596489
0.6706000000000006,974.6457244434619,974.6467242831677,973.1667015108338,973.1670174106392
0.6770000000000006,974.6354069215291,974.6364055299174,973.1672880896504,973.1676112602528
0.6834000000000006,974.6235952628249,974.6246108304672,973.1679839207885,973.168314476671
0.6898000000000006,974.6136367180721,974.6146382183421,973.1685916711492,973.1689301888421
0.6962000000000006,974.6023427509498,974.6034048924552,973.169304159185,973.1696471948916
0.7024000000000006,974.5926423787224,974.5936586066691,973.1699382300461,973.1702912137122
0.7088000000000007,974.5831906240581,974.5841923272778,973.1705748740776,973.1709358436041
0.7152000000000006,974.572468652425,974.5735266590524,973.1713200562408,973.1716853605516
0.7216000000000007,974.563250273473,974.5642523225906,973.1719827875729,973.1723589023246
0.7278000000000007,974.5542797380432,974.555278166207,973.1726460958874,973.1730294205399
0.7342000000000006,974.5440932516926,974.5451440187935,973.1734220419862,973.1738095015146
0.7406000000000007,974.5353330857439,974.5363296528384,973.1741111452044,973.17450950153
0.7470000000000007,974.5268064504086,974.5277982219454,973.1747999585182,973.1752055056005
0.7534000000000006,974.5170359110215,974.5180374853442,973.175612517432,973.176025153467
0.7596000000000007,974.5087911341153,974.5097795269336,973.1763183145645,973.1767387000374
0.7660000000000007,974.5006807578241,974.5016637069891,973.1770308319504,973.1774583347093
0.7724000000000006,974.4913850040173,974.4923762919975,973.1778702910888,973.1783047515161
0.7788000000000007,974.4835385431448,974.4845145230283,973.1785986103095,973.1790409340682
0.7852000000000007,974.4746297239952,974.4756489723982,973.1794469405115,973.1798928012577
0.7914000000000007,974.4669692378843,974.467948198899,973.180197135652,973.1806531125709
0.7978000000000007,974.4594972783754,974.460460899894,973.1809460607923,973.1814098193012
0.8042000000000007,974.4510117552808,974.4520157651966,973.1818174216984,973.1822844787714
0.8106000000000008,974.443708114857,974.4446640797969,973.1825878251401,973.1830658472513
0.8170000000000007,974.4365935680042,974.4375428297883,973.183354803961,973.1838396614414
0.8232000000000007,974.4285060071574,974.4294933325555,973.1842470272285,973.1847349010186
0.8296000000000008,974.4215433400233,974.4224841915295,973.1850350780529,973.1855338758255
0.8360000000000007,974.4147595714692,974.4156933954617,973.1858189016165,973.1863244035768
0.8424000000000007,974.4069779372288,974.4079159685385,973.1867387352042,973.1872505805075
0.8486000000000008,974.4004045831558,974.4013290688947,973.1875336569203,973.1880527888578
0.8550000000000008,974.3939321709995,974.3948493683301,973.1883324737055,973.1888581671757
0.8614000000000007,974.3865061316609,974.3874266897925,973.1892690530558,973.1898008968546
0.8678000000000008,974.3802314593925,974.3811369862905,973.1900777910096,973.1906169818692
0.8742000000000008,974.3731000489644,974.3740371917671,973.191015467442,973.1915570490612
0.8804000000000007,974.3669617415128,974.3678639326603,973.1918409361734,973.1923922864785
0.8868000000000008,974.360968947914,974.3618562749745,973.1926616343281,973.1932201850757
0.8932000000000008,974.3541565304009,974.3550735089505,973.1936124127901,973.1941731073248
0.8996000000000008,974.3482871931664,974.3491630904745,973.1944494938975,973.1950207859026
0.9060000000000008,974.3425646358405,974.3434327996226,973.1952796703571,973.1958570962164
0.9122000000000008,974.3360531726377,974.3369494335477,973.1962415500236,973.1968208335973
0.9186000000000009,974.3304419934998,974.3312985290469,973.1970877829953,973.1976775355416
0.9250000000000008,974.3249701438971,974.3258188570198,973.197926471837,973.1985221862468
0.9314000000000008,974.3186874644932,974.3195371570781,973.1989069934543,973.1995080922293
0.9378000000000009,974.3133749926511,974.3142103820018,973.1997513101619,973.2003591734469
0.9440000000000008,974.3081402402345,974.3089690667048,973.2005968183801,973.201210260434
0.9504000000000008,974.3021282689565,974.3029575906224,973.2015847320744,973.202203341976
0.9568000000000009,974.2970437370824,974.2978589951098,973.2024348613465,973.2030600612674
0.9632000000000008,974.2912597066315,974.2920985664487,973.2034172333333,973.204043695188
0.9696000000000009,974.286272866097,974.2870754179901,973.2042799651015,973.2049164861625
0.9758000000000009,974.28140758923,974.2822024569947,973.2051336306233,973.2057755882372
0.9822000000000009,974.2758676837851,974.2766847836835,973.2061203841764,973.2067633758984
0.9886000000000009,974.2710904443379,974.2718724291678,973.206986457974,973.2076393361971
0.9950000000000009,974.2664288417626,974.2672029344924,973.2078429823665,973.2085011544127
1.0012000000000008,974.2611199493971,974.2619152164101,973.2088324776329,973.209491419809
1.0076,974.2565410710503,974.2573023738026,973.209700487041,973.2103691341811
1.0139999999999993,974.2520722825184,974.2528257278373,973.2105584986948,973.2112322532962
1.0203999999999986,974.2469368672465,974.247689463186,973.211558834499,973.2122369543733
1.026799999999998,974.2425907583046,974.2433302556459,973.2124178757964,973.2131019092687
1.0329999999999973,974.238304852087,974.2390376219745,973.2132760205412,973.2139647665679
1.0393999999999965,974.2333784260696,974.2341100787768,973.2142760942942,973.2149689902004
1.0457999999999958,974.2292084557256,974.2299272846569,973.2151344954096,973.2158331162046
1.0521999999999951,974.2244608401725,974.225197644017,973.2161239712617,973.2168228433974
1.0585999999999944,974.2203641541698,974.2210698834635,973.2169908189039,973.2176988740653
1.0647999999999938,974.2163642478005,974.2170624747567,973.2178466557849,973.2185592750299
1.071199999999993,974.2118059609639,974.2125211900259,973.2188336200254,973.2195462950226
1.0775999999999923,974.2078719760895,974.2085571362661,973.2196978900328,973.2204195437333
1.0839999999999916,974.2040302998909,974.2047078611346,973.2205508504004,973.2212769247799
1.090399999999991,974.1996127454302,974.2002886276504,973.2215436333667,973.2222732925325
1.0965999999999902,974.1958720327116,974.1965367663204,973.2223947246833,973.223129395516
1.1029999999999895,974.1921805353855,974.1928377665992,973.2232437947015,973.2239827023438
1.1093999999999888,974.1879349657969,974.1885903581293,973.2242316615774,973.224973949728
1.1157999999999881,974.1843390684443,974.1849826603287,973.2250782758518,973.2258255920971
1.1219999999999875,974.1807903830038,974.1814274708352,973.2259224577174,973.2266736254517
1.1283999999999867,974.1767081344151,974.1773432461501,973.2269043488649,973.2276586968164
1.134799999999986,974.173250000587,974.1738735878596,973.2277455366486,973.2285047256146
1.1411999999999853,974.1693097609345,974.1699473024869,973.2287133761305,973.2294719662731
1.1475999999999846,974.1659071122068,974.166517983185,973.2295597158255,973.230326504783
1.153799999999984,974.162582453516,974.163186270445,973.2303939185643,973.2311644209794
1.1601999999999832,974.1587907665512,974.1594078357117,973.2313542592977,973.2321240032213
1.1665999999999825,974.1555158798542,974.1561071228351,973.2321937659566,973.232971493026
1.1729999999999818,974.152315562389,974.1528997186481,973.2330209936758,973.2338023000399
1.1793999999999811,974.1486327070775,974.1492146137907,973.233982239222,973.2347662100044
1.1855999999999804,974.14551176032,974.1460836470304,973.2348049607832,973.2355930833337
